 ### index            0  #####
 #14MeVpeak
 #INPUT SPECTRUM - E(MEV) lower+upper bound  VS.  FLUX
   0.0000E+00  1.0000E-10  1.1993E+10
   1.0000E-10  1.0000E-09  1.7387E+12
   1.0000E-09  1.0000E-08  6.5416E+12
   1.0000E-08  2.3000E-08  1.5608E+13
   2.3000E-08  5.0000E-08  1.1477E+13
   5.0000E-08  7.6000E-08  9.9846E+12
   7.6000E-08  1.1500E-07  6.5416E+12
   1.1500E-07  1.7000E-07  4.8201E+12
   1.7000E-07  2.5500E-07  4.2176E+12
   2.5500E-07  3.8000E-07  3.8619E+12
   3.8000E-07  5.5000E-07  4.2635E+12
   5.5000E-07  8.4000E-07  4.2291E+12
   8.4000E-07  1.2800E-06  3.9307E+12
   1.2800E-06  1.9000E-06  3.9192E+12
   1.9000E-06  2.8000E-06  4.3094E+12
   2.8000E-06  4.2500E-06  4.0283E+12
   4.2500E-06  6.3000E-06  3.7700E+12
   6.3000E-06  9.2000E-06  3.9422E+12
   9.2000E-06  1.3500E-05  4.6824E+12
   1.3500E-05  2.1000E-05  3.8332E+12
   2.1000E-05  3.0000E-05  4.3898E+12
   3.0000E-05  4.5000E-05  4.6480E+12
   4.5000E-05  6.9000E-05  4.1889E+12
   6.9000E-05  1.0000E-04  3.4085E+12
   1.0000E-04  1.3500E-04  2.8060E+12
   1.3500E-04  1.7000E-04  3.0183E+12
   1.7000E-04  2.2000E-04  3.0068E+12
   2.2000E-04  2.8000E-04  2.9323E+12
   2.8000E-04  3.6000E-04  2.4330E+12
   3.6000E-04  4.5000E-04  2.9093E+12
   4.5000E-04  5.7500E-04  3.1962E+12
   5.7500E-04  7.6000E-04  2.7658E+12
   7.6000E-04  9.6000E-04  3.3225E+12
   9.6000E-04  1.2800E-03  2.6224E+12
   1.2800E-03  1.6000E-03  2.5363E+12
   1.6000E-03  2.0000E-03  3.4487E+12
   2.0000E-03  2.7000E-03  2.8232E+12
   2.7000E-03  3.4000E-03  3.3454E+12
   3.4000E-03  4.5000E-03  2.5363E+12
   4.5000E-03  5.5000E-03  3.4487E+12
   5.5000E-03  7.2000E-03  2.8347E+12
   7.2000E-03  9.2000E-03  3.3798E+12
   9.2000E-03  1.2000E-02  2.9609E+12
   1.2000E-02  1.5000E-02  2.9609E+12
   1.5000E-02  1.9000E-02  4.3611E+12
   1.9000E-02  2.5500E-02  3.8274E+12
   2.5500E-02  3.2000E-02  1.7731E+12
   3.2000E-02  4.0000E-02  3.9651E+12
   4.0000E-02  5.2500E-02  3.8733E+12
   5.2500E-02  6.6000E-02  5.6120E+12
   6.6000E-02  8.8000E-02  3.3798E+12
   8.8000E-02  1.1000E-01  5.2161E+12
   1.1000E-01  1.3500E-01  2.9954E+12
   1.3500E-01  1.6000E-01  4.0455E+12
   1.6000E-01  1.9000E-01  3.3110E+12
   1.9000E-01  2.2000E-01  4.0397E+12
   2.2000E-01  2.5500E-01  4.4185E+12
   2.5500E-01  2.9000E-01  3.1331E+12
   2.9000E-01  3.2000E-01  4.2061E+12
   3.2000E-01  3.6000E-01  3.7930E+12
   3.6000E-01  4.0000E-01  3.6323E+12
   4.0000E-01  4.5000E-01  4.0340E+12
   4.5000E-01  5.0000E-01  3.8045E+12
   5.0000E-01  5.5000E-01  3.6667E+12
   5.5000E-01  6.0000E-01  4.5275E+12
   6.0000E-01  6.6000E-01  4.8316E+12
   6.6000E-01  7.2000E-01  4.3840E+12
   7.2000E-01  7.8000E-01  3.5003E+12
   7.8000E-01  8.4000E-01  4.2234E+12
   8.4000E-01  9.2000E-01  3.8446E+12
   9.2000E-01  1.0000E+00  8.7222E+12
   1.0000E+00  1.2000E+00  7.8614E+12
   1.2000E+00  1.4000E+00  6.5990E+12
   1.4000E+00  1.6000E+00  6.0826E+12
   1.6000E+00  1.8000E+00  5.1702E+12
   1.8000E+00  2.0000E+00  6.5416E+12
   2.0000E+00  2.3000E+00  6.2547E+12
   2.3000E+00  2.6000E+00  4.5734E+12
   2.6000E+00  2.9000E+00  4.6365E+12
   2.9000E+00  3.3000E+00  3.1216E+12
   3.3000E+00  3.7000E+00  2.3986E+12
   3.7000E+00  4.1000E+00  1.8707E+12
   4.1000E+00  4.5000E+00  1.7502E+12
   4.5000E+00  5.0000E+00  1.1304E+12
   5.0000E+00  5.5000E+00  8.7795E+11
   5.5000E+00  6.0000E+00  7.1728E+11
   6.0000E+00  6.7000E+00  4.2348E+11
   6.7000E+00  7.4000E+00  2.4388E+11
   7.4000E+00  8.2000E+00  1.5723E+11
   8.2000E+00  9.0000E+00  9.0091E+10
   9.0000E+00  1.0000E+01  2.6224E+10
   1.0000E+01  1.1000E+01  2.6396E+10
   1.1000E+01  1.2000E+01  1.2108E+10
   1.2000E+01  1.3000E+01  6.8859E+09
   1.3000E+01  1.4000E+01  3.2479E+09
   1.4000E+01  1.5000E+01  0.0000E+00
   1.5000E+01  1.6000E+01  0.0000E+00
   1.6000E+01  1.7000E+01  0.0000E+00
   1.7000E+01  1.8000E+01  0.0000E+00
   1.8000E+01  1.9000E+01  0.0000E+00
# TOTAL FLUX =  3.5333E+14  FLUENCE =  3.5333E+14


 ### index            1  ##### Fe056s.asc
 #            (n,np) proton matrix [ H1 ] from [ Fe56 ]
 #PKA RECOIL DISTRIBUTIONS
 #RECOIL energy (MeV low & high)    PKAs     norm_sum  T_dam (MeV low & high)      disp_energy (eV/s)       dpa/s
    7.585776E-04    7.943282E-04 2.4402E-24 1.8902E-08 5.1719E-05 5.3523E-05          1.2840E-22          1.2840E-24
    7.943282E-04    8.317638E-04 5.1587E-24 3.9961E-08 5.3523E-05 5.5381E-05          2.8090E-22          2.8090E-24
    8.317638E-04    8.709636E-04 5.5257E-24 4.2803E-08 5.5381E-05 5.7294E-05          3.1130E-22          3.1130E-24
    8.709636E-04    9.120108E-04 5.9199E-24 4.5857E-08 5.7294E-05 5.9265E-05          3.4501E-22          3.4501E-24
    9.120108E-04    9.549926E-04 6.3414E-24 4.9122E-08 5.9265E-05 6.1293E-05          3.8225E-22          3.8225E-24
    9.549926E-04    1.000000E-03 6.7923E-24 5.2615E-08 6.1293E-05 6.3379E-05          4.2340E-22          4.2340E-24
    1.000000E-03    1.047129E-03 9.7696E-24 7.5678E-08 6.3379E-05 6.5526E-05          6.2968E-22          6.2968E-24
    1.047129E-03    1.096478E-03 1.0464E-23 8.1055E-08 6.5526E-05 6.7733E-05          6.9719E-22          6.9719E-24
    1.096478E-03    1.148154E-03 1.1207E-23 8.6816E-08 6.7733E-05 7.0002E-05          7.7183E-22          7.7183E-24
    1.148154E-03    1.202264E-03 1.2005E-23 9.2991E-08 7.0002E-05 7.2334E-05          8.5435E-22          8.5435E-24
    1.202264E-03    1.258925E-03 1.5324E-23 1.1870E-07 7.2334E-05 7.4729E-05          1.1268E-21          1.1268E-23
    1.258925E-03    1.318257E-03 1.6416E-23 1.2716E-07 7.4729E-05 7.7188E-05          1.2469E-21          1.2469E-23
    1.318257E-03    1.380384E-03 1.7590E-23 1.3626E-07 7.7188E-05 7.9713E-05          1.3800E-21          1.3800E-23
    1.380384E-03    1.445440E-03 1.8851E-23 1.4602E-07 7.9713E-05 8.2303E-05          1.5271E-21          1.5271E-23
    1.445440E-03    1.513561E-03 2.0203E-23 1.5650E-07 8.2303E-05 8.4960E-05          1.6896E-21          1.6896E-23
    1.513561E-03    1.584893E-03 2.1653E-23 1.6773E-07 8.4960E-05 8.7684E-05          1.8691E-21          1.8691E-23
    1.584893E-03    1.659587E-03 2.3202E-23 1.7973E-07 8.7684E-05 9.0476E-05          2.0669E-21          2.0669E-23
    1.659587E-03    1.737801E-03 2.4856E-23 1.9254E-07 9.0476E-05 9.3336E-05          2.2844E-21          2.2844E-23
    1.737801E-03    1.819701E-03 2.6626E-23 2.0625E-07 9.3336E-05 9.6264E-05          2.5242E-21          2.5242E-23
    1.819701E-03    1.905461E-03 2.8517E-23 2.2090E-07 9.6264E-05 9.9262E-05          2.7879E-21          2.7879E-23
    1.905461E-03    1.995262E-03 3.0540E-23 2.3657E-07 9.9262E-05 1.0233E-04          3.0783E-21          3.0783E-23
    1.995262E-03    2.089296E-03 3.5237E-23 2.7295E-07 1.0233E-04 1.0546E-04          3.6610E-21          3.6610E-23
    2.089296E-03    2.187762E-03 3.7742E-23 2.9236E-07 1.0546E-04 1.0867E-04          4.0410E-21          4.0410E-23
    2.187762E-03    2.290868E-03 4.0430E-23 3.1318E-07 1.0867E-04 1.1195E-04          4.4597E-21          4.4597E-23
    2.290868E-03    2.398833E-03 4.3307E-23 3.3547E-07 1.1195E-04 1.1529E-04          4.9205E-21          4.9205E-23
    2.398833E-03    2.511886E-03 4.6390E-23 3.5935E-07 1.1529E-04 1.1870E-04          5.4274E-21          5.4274E-23
    2.511886E-03    2.630268E-03 4.9686E-23 3.8489E-07 1.1870E-04 1.2219E-04          5.9845E-21          5.9845E-23
    2.630268E-03    2.754229E-03 5.3227E-23 4.1231E-07 1.2219E-04 1.2574E-04          6.5982E-21          6.5982E-23
    2.754229E-03    2.884032E-03 5.7020E-23 4.4169E-07 1.2574E-04 1.2936E-04          7.2728E-21          7.2728E-23
    2.884032E-03    3.019952E-03 6.1093E-23 4.7324E-07 1.2936E-04 1.3304E-04          8.0154E-21          8.0154E-23
    3.019952E-03    3.162278E-03 6.5457E-23 5.0705E-07 1.3304E-04 1.3680E-04          8.8315E-21          8.8315E-23
    3.162278E-03    3.311311E-03 7.0125E-23 5.4321E-07 1.3680E-04 1.4062E-04          9.7268E-21          9.7268E-23
    3.311311E-03    3.467369E-03 7.5110E-23 5.8182E-07 1.4062E-04 1.4450E-04          1.0708E-20          1.0708E-22
    3.467369E-03    3.630781E-03 8.0444E-23 6.2314E-07 1.4450E-04 1.4845E-04          1.1783E-20          1.1783E-22
    3.630781E-03    3.801894E-03 8.6144E-23 6.6730E-07 1.4845E-04 1.5246E-04          1.2961E-20          1.2961E-22
    3.801894E-03    3.981072E-03 9.2238E-23 7.1451E-07 1.5246E-04 1.5653E-04          1.4250E-20          1.4250E-22
    3.981072E-03    4.168694E-03 9.8754E-23 7.6498E-07 1.5653E-04 1.6066E-04          1.5662E-20          1.5662E-22
    4.168694E-03    4.365158E-03 1.0574E-22 8.1912E-07 1.6066E-04 1.6485E-04          1.7211E-20          1.7211E-22
    4.365158E-03    4.570882E-03 1.1324E-22 8.7717E-07 1.6485E-04 1.6910E-04          1.8908E-20          1.8908E-22
    4.570882E-03    4.786301E-03 1.2126E-22 9.3929E-07 1.6910E-04 1.7340E-04          2.0765E-20          2.0765E-22
    4.786301E-03    5.011872E-03 1.2984E-22 1.0058E-06 1.7340E-04 1.7776E-04          2.2798E-20          2.2798E-22
    5.011872E-03    5.248075E-03 1.3902E-22 1.0769E-06 1.7776E-04 1.8216E-04          2.5018E-20          2.5018E-22
    5.248075E-03    5.495409E-03 1.4887E-22 1.1532E-06 1.8216E-04 1.8662E-04          2.7450E-20          2.7450E-22
    5.495409E-03    5.754399E-03 1.5942E-22 1.2349E-06 1.8662E-04 1.9112E-04          3.0109E-20          3.0109E-22
    5.754399E-03    6.025596E-03 1.7073E-22 1.3226E-06 1.9112E-04 1.9567E-04          3.3019E-20          3.3019E-22
    6.025596E-03    6.309573E-03 1.8286E-22 1.4165E-06 1.9567E-04 2.0026E-04          3.6199E-20          3.6199E-22
    6.309573E-03    6.606934E-03 1.9583E-22 1.5169E-06 2.0026E-04 2.0489E-04          3.9669E-20          3.9669E-22
    6.606934E-03    6.918310E-03 2.0968E-22 1.6243E-06 2.0489E-04 2.0955E-04          4.3450E-20          4.3450E-22
    6.918310E-03    7.244360E-03 2.2451E-22 1.7391E-06 2.0955E-04 2.1425E-04          4.7573E-20          4.7573E-22
    7.244360E-03    7.585776E-03 2.4036E-22 1.8619E-06 2.1425E-04 2.1898E-04          5.2066E-20          5.2066E-22
    7.585776E-03    7.943282E-03 2.5731E-22 1.9932E-06 2.1898E-04 2.2374E-04          5.6960E-20          5.6960E-22
    7.943282E-03    8.317638E-03 2.7546E-22 2.1338E-06 2.2374E-04 2.2853E-04          6.2291E-20          6.2291E-22
    8.317638E-03    8.709636E-03 2.9493E-22 2.2846E-06 2.2853E-04 2.3334E-04          6.8110E-20          6.8110E-22
    8.709636E-03    9.120108E-03 3.1584E-22 2.4466E-06 2.3334E-04 2.3817E-04          7.4459E-20          7.4459E-22
    9.120108E-03    9.549926E-03 3.3857E-22 2.6227E-06 2.3817E-04 2.4301E-04          8.1456E-20          8.1456E-22
    9.549926E-03    1.000000E-02 3.6345E-22 2.8154E-06 2.4301E-04 2.4788E-04          8.9206E-20          8.9206E-22
    1.000000E-02    1.047129E-02 3.9100E-22 3.0288E-06 2.4788E-04 2.5275E-04          9.7871E-20          9.7871E-22
    1.047129E-02    1.096478E-02 4.2006E-22 3.2539E-06 2.5275E-04 2.5763E-04          1.0719E-19          1.0719E-21
    1.096478E-02    1.148154E-02 4.4949E-22 3.4819E-06 2.5763E-04 2.6251E-04          1.1690E-19          1.1690E-21
    1.148154E-02    1.202264E-02 4.8023E-22 3.7200E-06 2.6251E-04 2.6740E-04          1.2724E-19          1.2724E-21
    1.202264E-02    1.258925E-02 5.1254E-22 3.9703E-06 2.6740E-04 2.7229E-04          1.3831E-19          1.3831E-21
    1.258925E-02    1.318257E-02 5.4615E-22 4.2307E-06 2.7229E-04 2.7717E-04          1.5004E-19          1.5004E-21
    1.318257E-02    1.380384E-02 5.7973E-22 4.4908E-06 2.7717E-04 2.8205E-04          1.6210E-19          1.6210E-21
    1.380384E-02    1.445440E-02 6.1224E-22 4.7426E-06 2.8205E-04 2.8691E-04          1.7417E-19          1.7417E-21
    1.445440E-02    1.513561E-02 6.4701E-22 5.0119E-06 2.8691E-04 2.9176E-04          1.8720E-19          1.8720E-21
    1.513561E-02    1.584893E-02 6.8022E-22 5.2692E-06 2.9176E-04 2.9660E-04          2.0011E-19          2.0011E-21
    1.584893E-02    1.659587E-02 7.1256E-22 5.5197E-06 2.9660E-04 3.0142E-04          2.1306E-19          2.1306E-21
    1.659587E-02    1.737801E-02 7.4466E-22 5.7683E-06 3.0142E-04 3.0622E-04          2.2624E-19          2.2624E-21
    1.737801E-02    1.819701E-02 7.7711E-22 6.0197E-06 3.0622E-04 3.1099E-04          2.3982E-19          2.3982E-21
    1.819701E-02    1.905461E-02 8.1004E-22 6.2748E-06 3.1099E-04 3.1574E-04          2.5384E-19          2.5384E-21
    1.905461E-02    1.995262E-02 8.4502E-22 6.5458E-06 3.1574E-04 3.2045E-04          2.6880E-19          2.6880E-21
    1.995262E-02    2.089296E-02 8.8377E-22 6.8460E-06 3.2045E-04 3.2514E-04          2.8528E-19          2.8528E-21
    2.089296E-02    2.187762E-02 9.2492E-22 7.1647E-06 3.2514E-04 3.2979E-04          3.0288E-19          3.0288E-21
    2.187762E-02    2.290868E-02 9.6824E-22 7.5003E-06 3.2979E-04 3.3441E-04          3.2155E-19          3.2155E-21
    2.290868E-02    2.398833E-02 1.0137E-21 7.8522E-06 3.3441E-04 3.3898E-04          3.4130E-19          3.4130E-21
    2.398833E-02    2.511886E-02 1.0613E-21 8.2212E-06 3.3898E-04 3.4352E-04          3.6217E-19          3.6217E-21
    2.511886E-02    2.630268E-02 1.1113E-21 8.6082E-06 3.4352E-04 3.4801E-04          3.8424E-19          3.8424E-21
    2.630268E-02    2.754229E-02 1.1636E-21 9.0136E-06 3.4801E-04 3.5246E-04          4.0754E-19          4.0754E-21
    2.754229E-02    2.884032E-02 1.2184E-21 9.4384E-06 3.5246E-04 3.5687E-04          4.3214E-19          4.3214E-21
    2.884032E-02    3.019952E-02 1.2759E-21 9.8833E-06 3.5687E-04 3.6122E-04          4.5809E-19          4.5809E-21
    3.019952E-02    3.162278E-02 1.3360E-21 1.0349E-05 3.6122E-04 3.6553E-04          4.8547E-19          4.8547E-21
    3.162278E-02    3.311311E-02 1.3990E-21 1.0837E-05 3.6553E-04 3.6978E-04          5.1434E-19          5.1434E-21
    3.311311E-02    3.467369E-02 1.4649E-21 1.1348E-05 3.6978E-04 3.7399E-04          5.4478E-19          5.4478E-21
    3.467369E-02    3.630781E-02 1.5339E-21 1.1882E-05 3.7399E-04 3.7814E-04          5.7686E-19          5.7686E-21
    3.630781E-02    3.801894E-02 1.6062E-21 1.2442E-05 3.7814E-04 3.8223E-04          6.1066E-19          6.1066E-21
    3.801894E-02    3.981072E-02 1.6819E-21 1.3029E-05 3.8223E-04 3.8627E-04          6.4628E-19          6.4628E-21
    3.981072E-02    4.168694E-02 1.7612E-21 1.3643E-05 3.8627E-04 3.9026E-04          6.8380E-19          6.8380E-21
    4.168694E-02    4.365158E-02 1.8442E-21 1.4285E-05 3.9026E-04 3.9418E-04          7.2332E-19          7.2332E-21
    4.365158E-02    4.570882E-02 1.9311E-21 1.4959E-05 3.9418E-04 3.9805E-04          7.6494E-19          7.6494E-21
    4.570882E-02    4.786301E-02 2.0221E-21 1.5664E-05 3.9805E-04 4.0186E-04          8.0875E-19          8.0875E-21
    4.786301E-02    5.011872E-02 2.1174E-21 1.6402E-05 4.0186E-04 4.0561E-04          8.5487E-19          8.5487E-21
    5.011872E-02    5.248075E-02 2.2172E-21 1.7175E-05 4.0561E-04 4.0930E-04          9.0342E-19          9.0342E-21
    5.248075E-02    5.495409E-02 2.3217E-21 1.7985E-05 4.0930E-04 4.1293E-04          9.5451E-19          9.5451E-21
    5.495409E-02    5.754399E-02 2.4312E-21 1.8833E-05 4.1293E-04 4.1650E-04          1.0083E-18          1.0083E-20
    5.754399E-02    6.025596E-02 2.5459E-21 1.9721E-05 4.1650E-04 4.2002E-04          1.0648E-18          1.0648E-20
    6.025596E-02    6.309573E-02 2.6659E-21 2.0651E-05 4.2002E-04 4.2347E-04          1.1243E-18          1.1243E-20
    6.309573E-02    6.606934E-02 2.7916E-21 2.1625E-05 4.2347E-04 4.2686E-04          1.1869E-18          1.1869E-20
    6.606934E-02    6.918310E-02 2.9233E-21 2.2645E-05 4.2686E-04 4.3018E-04          1.2527E-18          1.2527E-20
    6.918310E-02    7.244360E-02 3.0612E-21 2.3713E-05 4.3018E-04 4.3345E-04          1.3219E-18          1.3219E-20
    7.244360E-02    7.585776E-02 3.2055E-21 2.4831E-05 4.3345E-04 4.3666E-04          1.3946E-18          1.3946E-20
    7.585776E-02    7.943282E-02 3.3566E-21 2.6002E-05 4.3666E-04 4.3981E-04          1.4710E-18          1.4710E-20
    7.943282E-02    8.317638E-02 3.5149E-21 2.7227E-05 4.3981E-04 4.4290E-04          1.5513E-18          1.5513E-20
    8.317638E-02    8.709636E-02 3.6806E-21 2.8511E-05 4.4290E-04 4.4593E-04          1.6357E-18          1.6357E-20
    8.709636E-02    9.120108E-02 3.8540E-21 2.9854E-05 4.4593E-04 4.4891E-04          1.7244E-18          1.7244E-20
    9.120108E-02    9.549926E-02 4.0356E-21 3.1261E-05 4.4891E-04 4.5182E-04          1.8175E-18          1.8175E-20
    9.549926E-02    1.000000E-01 4.2258E-21 3.2734E-05 4.5182E-04 4.5468E-04          1.9153E-18          1.9153E-20
    1.000000E-01    1.047129E-01 4.4249E-21 3.4276E-05 4.5468E-04 4.5748E-04          2.0181E-18          2.0181E-20
    1.047129E-01    1.096478E-01 4.6332E-21 3.5890E-05 4.5748E-04 4.6022E-04          2.1259E-18          2.1259E-20
    1.096478E-01    1.148154E-01 4.8515E-21 3.7581E-05 4.6022E-04 4.6291E-04          2.2393E-18          2.2393E-20
    1.148154E-01    1.202264E-01 5.0799E-21 3.9350E-05 4.6291E-04 4.6554E-04          2.3582E-18          2.3582E-20
    1.202264E-01    1.258925E-01 5.3192E-21 4.1204E-05 4.6554E-04 4.6812E-04          2.4831E-18          2.4831E-20
    1.258925E-01    1.318257E-01 5.5698E-21 4.3145E-05 4.6812E-04 4.7064E-04          2.6143E-18          2.6143E-20
    1.318257E-01    1.380384E-01 5.8320E-21 4.5177E-05 4.7064E-04 4.7311E-04          2.7520E-18          2.7520E-20
    1.380384E-01    1.445440E-01 6.1068E-21 4.7305E-05 4.7311E-04 4.7553E-04          2.8966E-18          2.8966E-20
    1.445440E-01    1.513561E-01 6.3944E-21 4.9533E-05 4.7553E-04 4.7790E-04          3.0483E-18          3.0483E-20
    1.513561E-01    1.584893E-01 6.6957E-21 5.1867E-05 4.7790E-04 4.8022E-04          3.2076E-18          3.2076E-20
    1.584893E-01    1.659587E-01 7.0111E-21 5.4310E-05 4.8022E-04 4.8248E-04          3.3748E-18          3.3748E-20
    1.659587E-01    1.737801E-01 7.3413E-21 5.6868E-05 4.8248E-04 4.8470E-04          3.5502E-18          3.5502E-20
    1.737801E-01    1.819701E-01 7.6871E-21 5.9546E-05 4.8470E-04 4.8687E-04          3.7343E-18          3.7343E-20
    1.819701E-01    1.905461E-01 8.0491E-21 6.2351E-05 4.8687E-04 4.8900E-04          3.9275E-18          3.9275E-20
    1.905461E-01    1.995262E-01 8.4282E-21 6.5287E-05 4.8900E-04 4.9107E-04          4.1301E-18          4.1301E-20
    1.995262E-01    2.089296E-01 8.8252E-21 6.8363E-05 4.9107E-04 4.9311E-04          4.3428E-18          4.3428E-20
    2.089296E-01    2.187762E-01 9.2410E-21 7.1583E-05 4.9311E-04 4.9509E-04          4.5660E-18          4.5660E-20
    2.187762E-01    2.290868E-01 9.6762E-21 7.4955E-05 4.9509E-04 4.9704E-04          4.8000E-18          4.8000E-20
    2.290868E-01    2.398833E-01 1.0132E-20 7.8486E-05 4.9704E-04 4.9894E-04          5.0456E-18          5.0456E-20
    2.398833E-01    2.511886E-01 1.0609E-20 8.2183E-05 4.9894E-04 5.0080E-04          5.3033E-18          5.3033E-20
    2.511886E-01    2.630268E-01 1.1109E-20 8.6057E-05 5.0080E-04 5.0262E-04          5.5737E-18          5.5737E-20
    2.630268E-01    2.754229E-01 1.1633E-20 9.0113E-05 5.0262E-04 5.0440E-04          5.8573E-18          5.8573E-20
    2.754229E-01    2.884032E-01 1.2182E-20 9.4363E-05 5.0440E-04 5.0614E-04          6.1550E-18          6.1550E-20
    2.884032E-01    3.019952E-01 1.2756E-20 9.8815E-05 5.0614E-04 5.0784E-04          6.4673E-18          6.4673E-20
    3.019952E-01    3.162278E-01 1.3361E-20 1.0350E-04 5.0784E-04 5.0950E-04          6.7961E-18          6.7961E-20
    3.162278E-01    3.311311E-01 1.4001E-20 1.0846E-04 5.0950E-04 5.1113E-04          7.1448E-18          7.1448E-20
    3.311311E-01    3.467369E-01 1.4678E-20 1.1370E-04 5.1113E-04 5.1272E-04          7.5138E-18          7.5138E-20
    3.467369E-01    3.630781E-01 1.5401E-20 1.1930E-04 5.1272E-04 5.1427E-04          7.9081E-18          7.9081E-20
    3.630781E-01    3.801894E-01 1.6186E-20 1.2538E-04 5.1427E-04 5.1579E-04          8.3362E-18          8.3362E-20
